Scan	Intensity	SmoothedIntensity	Peak 1	Peak 2	Peak 3	Peak 4	Peak 5	Peak 6	Peak 7	Peak 8	Peak 9
5797	5.500	14993.031									
5808	9975.500	27665.205									
5819	71351.203	39086.892									
5830	89824.102	46325.679									
5841	4.300	47807.698									
5852	0.200	43700.598									
5863	93880.898	35667.541									
5874	1794.600	26411.182	1794.600								
5885	49793.699	19177.527	49793.699								
5896	7162.700	17005.652	7162.700								
5907	11605.900	21588.990	11605.900								
5918	33827.500	32158.340	33827.500								
5929	20372.801	45225.449	20372.801								
5940	38596.301	55789.174	38596.301								
5951	133336.094	59698.015	133336.094								
5962	59994.500	55896.105	59994.500								
5973	6532.000	47090.338	6532.000								
5984	27513.699	38300.956	27513.699								
5995	42432.602	34176.137	42432.602								
6006	24814.699	36744.865	24814.699								
6017	81935.602	44884.772	81935.602								
6028	37515.500	55636.732	37515.500								
6039	39286.102	66474.925	39286.102								
6050	79187.602	77225.645	79187.602								
6061	166891.797	90485.677	166891.797								
6072	111273.898	110008.946	111273.898								
6083	60024.898	137615.931	60024.898								
6094	133244.500	170407.167	133244.500								
6105	224813.203	200451.971	224813.203								
6116	263174.594	217848.090	263174.594								
6127	271439.188	215682.212	271439.188								
6138	124732.500	193843.558	124732.500								
6149	193557.297	159285.239	193557.297								
6160	41747.199	122709.233	41747.199								
6171	131973.000	93853.684	131973.000								
6182	95272.000	78034.666	95272.000								
6193	101192.102	75366.797	101192.102	101192.102							
6204	25418.199	82398.965		25418.199							
6215	120378.203	94907.454		120378.203							
6226	91517.898	110487.314		91517.898							
6237	175522.203	129897.497		175522.203							
6248	156031.906	156533.240		156031.906							
6259	129243.398	194037.691		129243.398							
6270	349521.688	242977.177		349521.688							
6281	184749.297	298281.829		184749.297							
6292	352692.813	349177.069		352692.813							
6303	418842.094	382301.777		418842.094							
6314	389966.500	386959.623		389966.500							
6325	424242.188	359951.766		424242.188							
6336	281135.406	307329.588		281135.406							
6347	152506.906	242043.977		152506.906							
6358	217180.297	178837.287		217180.297							
6369	145093.094	129112.641		145093.094							
6380	86729.000	98025.939		86729.000							
6391	143901.500	84369.676		143901.500							
6402	2558.100	82409.769		2558.100							
6413	108003.297	84489.309		108003.297							
6424	80438.398	83582.690		80438.398							
6435	118724.703	75331.197		118724.703							
6446	21.800	59160.980		21.800							
6457	81270.500	38164.292		81270.500							
6468	9.400	17762.919		9.400							
6479	2.700	3628.130		2.700							
6490	9.400	-396.901		9.400	9.400						
6501	0.900	6324.045			0.900						
6512	23369.600	20942.469			23369.600						
6523	104204.500	38028.906			104204.500						
6534	0.100	51629.825			0.100						
6545	1.700	58553.862			1.700						
6556	64000.301	62805.795			64000.301						
6567	97678.102	80049.032			97678.102						
6578	132666.094	139241.713			132666.094						
6589	515917.094	277678.720			515917.094						
6600	411131.313	527535.928			411131.313						
6611	808095.313	897037.517			808095.313						
6622	1197295.375	1354982.294			1197295.375						
6633	1916412.375	1829090.295			1916412.375						
6644	2289955.500	2223575.588			2289955.500						
6655	2222528.750	2451305.243			2222528.750						
6666	2978328.500	2466713.350			2978328.500						
6677	2233757.000	2283281.937			2233757.000						
6688	1759164.375	1966182.495			1759164.375						
6699	1508402.125	1603552.538			1508402.125						
6710	1157380.250	1271422.950			1157380.250						
6721	1055385.500	1009966.541			1055385.500						
6732	1053262.125	820693.588			1053262.125						
6743	729063.875	681358.841			729063.875						
6754	407156.313	566560.866			407156.313						
6765	478476.500	462115.350			478476.500						
6776	378687.406	368048.807			378687.406						
6787	270670.406	292490.273			270670.406						
6798	256890.203	242481.279			256890.203						
6809	213818.203	217354.408			213818.203						
6820	127965.000	207683.365			127965.000						
6831	338888.188	199652.926			338888.188						
6842	90896.203	182112.362			90896.203						
6853	197064.500	152337.951			197064.500						
6864	152648.000	117161.484			152648.000						
6875	101925.500	88498.646			101925.500						
6886	25.100	75492.647			25.100	25.100					
6897	45324.500	77957.388				45324.500					
6908	81948.398	85981.006				81948.398					
6919	51486.102	87671.816				51486.102					
6930	231140.203	82090.540				231140.203					
6941	3.700	90124.197				3.700					
6952	323360.188	155341.152				323360.188					
6963	264987.906	330907.025				264987.906					
6974	574314.188	655890.903				574314.188					
6985	1059387.500	1131036.982				1059387.500					
6996	1689731.250	1706290.454				1689731.250					
7007	2277899.500	2288093.989				2277899.500					
7018	2931659.000	2765431.122				2931659.000					
7029	3043661.500	3044542.678				3043661.500					
7040	2934298.750	3078092.930				2934298.750					
7051	3118081.250	2877286.170				3118081.250					
7062	2439566.500	2503201.853				2439566.500					
7073	1843706.250	2042478.192				1843706.250					
7084	1621871.500	1578549.794				1621871.500					
7095	1104892.750	1170336.152				1104892.750					
7106	988656.688	845240.969				988656.688					
7117	629283.500	605336.664				629283.500					
7128	482322.688	439481.234				482322.688					
7139	260213.000	333341.577				260213.000					
7150	200356.594	273436.647				200356.594					
7161	284579.188	246627.743				284579.188					
7172	177130.500	239094.076				177130.500					
7183	332611.688	237562.674				332611.688					
7194	291633.500	232325.975				291633.500					
7205	190864.094	219425.346				190864.094					
7216	111667.102	199988.808				111667.102					
7227	161070.594	177222.499				161070.594					
7238	216485.094	153500.111				216485.094					
7249	102979.000	129625.855				102979.000					
7260	144110.703	106203.744				144110.703					
7271	123921.102	85210.716				123921.102					
7282	1.600	69886.723				1.600					
7293	72678.000	62720.857				72678.000	72678.000				
7304	58940.500	63143.254				58940.500	58940.500				
7315	0.000	67037.658					0.000				
7315	142711.406	68938.973					142711.406				
7315	142711.406	65678.324					142711.406				
7315	0.000	58901.924					0.000				
7326	24.300	54453.126					24.300				
7337	85895.500	58726.901					85895.500				
7348	136062.406	74172.640					136062.406				
7359	5.600	96709.453					5.600				
7370	144508.594	116801.074					144508.594				
7381	75776.297	124080.680					75776.297				
7392	231424.906	113494.139					231424.906				
7403	79692.703	89686.654					79692.703				
7414	15.600	66668.541					15.600				
7425	138160.000	62001.285					138160.000				
7436	85064.203	87893.197					85064.203				
7447	29.400	143840.925					29.400				
7458	170099.406	215253.569					170099.406				
7469	462652.094	279514.069					462652.094				
7480	351280.500	316518.273					351280.500				
7491	300746.594	317710.093					300746.594				
7502	239241.000	288493.572					239241.000				
7513	182454.594	243320.840					182454.594				
7524	190247.406	197389.309					190247.406				
7535	181054.000	160289.702					181054.000				
7546	203039.797	134553.762					203039.797				
7557	150476.094	118252.135					150476.094				
7568	2.500	108567.627					2.500				
7579	138273.094	103758.606					138273.094				
7590	117295.500	102959.309					117295.500				
7601	104110.000	104899.023					104110.000				
7612	103252.797	106956.130					103252.797				
7623	59519.102	105388.604					59519.102				
7634	158022.297	96774.505					158022.297				
7645	39649.500	79961.453					39649.500				
7656	124531.703	57366.695					124531.703				
7667	0.400	34632.937					0.400				
7667	0.000	18555.430					0.000	0.000			
7667	0.000	14353.439					0.000	0.000			
7667	0.400	23870.340						0.400			
7678	140525.797	45638.115						140525.797			
7689	3.200	76371.995						3.200			
7700	167262.406	112470.528						167262.406			
7711	140560.000	150296.685						140560.000			
7722	208307.297	185252.903						208307.297			
7733	110046.500	210992.352						110046.500			
7744	144775.797	220444.720						144775.797			
7755	469816.500	209135.285						469816.500			
7766	77583.398	179170.840						77583.398			
7777	128932.797	140999.473						128932.797			
7788	56282.000	111006.954						56282.000			
7799	151571.094	105585.910						151571.094			
7810	171648.000	134425.762						171648.000			
7821	132727.000	196069.653						132727.000			
7832	252416.906	277616.895						252416.906			
7843	413672.906	358773.344						413672.906			
7854	420524.406	418805.843						420524.406			
7865	410893.313	443721.073						410893.313			
7876	536982.125	430763.822						536982.125			
7887	268830.188	388467.516						268830.188			
7898	377940.094	332522.232						377940.094			
7909	238639.500	279544.616						238639.500			
7920	283011.813	241454.737						283011.813			
7931	196439.203	222412.096						196439.203			
7942	297048.094	218847.819						297048.094			
7953	113080.203	221993.550						113080.203			
7964	224489.203	221822.567						224489.203			
7975	255124.797	211156.529						255124.797			
7986	256479.797	188504.706						256479.797			
7997	116126.000	158302.335						116126.000			
8008	63716.000	128214.716						63716.000			
8019	142016.094	104872.767						142016.094			
8030	68759.000	90525.316						68759.000			
8041	52349.398	82529.712						52349.398			
8052	197830.797	75676.502						197830.797			
8063	18348.500	65542.808						18348.500			
8074	21012.100	50714.472						21012.100			
8085	21951.600	32907.346						21951.600			
8096	11733.000	15622.040						11733.000			
8107	35499.898	2663.929						35499.898			
8118	18.200	-2660.665						18.200	18.200		
8129	2153.800	2219.994							2153.800		
8140	53.300	18978.950							53.300		
8151	12.400	48056.690							12.400		
8162	155775.906	88253.528							155775.906		
8173	232333.000	136370.299							232333.000		
8184	2.300	186986.551							2.300		
8195	300692.813	232736.477							300692.813		
8206	210564.203	265671.891							210564.203		
8217	348063.000	279736.263							348063.000		
8228	436078.406	273154.943							436078.406		
8239	20.900	249021.589							20.900		
8250	262771.000	213501.082							262771.000		
8261	171367.500	172966.691							171367.500		
8272	222789.000	132100.800							222789.000		
8283	6.900	93849.253							6.900		
8294	131536.797	60455.599							131536.797		
8305	43.800	34202.398							43.800		
8316	2.800	17146.161							2.800		
8327	38355.500	10139.890							38355.500		
8338	9.800	11977.007							9.800		
8349	15921.800	19378.777							15921.800		
8360	11.200	28019.792							11.200		
8371	75373.500	34160.833							75373.500		
8382	69215.000	36024.087							69215.000		
8393	7.200	34095.768							7.200		
8404	7.500	30199.399							7.500		
8415	12.300	26057.871							12.300		
8426	104991.500	22385.582							104991.500		
8437	2.500	18986.239							2.500		
8448	3.800	15462.030							3.800		
8459	0.600	11826.357							0.600		
8470	17.700	8683.830							17.700	17.700	
8481	41418.699	7081.386							41418.699	41418.699	
8492	13498.800	8186.212								13498.800	
8503	14.500	12818.187								14.500	
8514	14.700	20954.769								14.700	
8525	14.400	31564.767								14.400	
8536	127825.898	43063.455								127825.898	
8547	6875.300	54166.483								6875.300	
8558	105108.203	64444.170								105108.203	
8569	47268.000	74045.683								47268.000	
8580	32733.301	82822.546								32733.301	
8591	109591.102	89687.124								109591.102	
8602	156066.906	92841.912								156066.906	
8613	78705.898	90696.047								78705.898	
8624	46871.898	82713.163								46871.898	
8635	41493.301	69677.849								41493.301	
8646	96942.297	53520.998								96942.297	
8657	33026.000	37072.702								33026.000	
8668	37869.301	23737.306								37869.301	
8679	16197.600	16752.572								16197.600	16197.600
8690	1.500	17970.055									1.500
8701	0.900	26757.665									0.900
8712	63860.801	39945.487									63860.801
8723	72705.898	53251.825									72705.898
8734	10.200	63600.503									10.200
8745	166637.000	70932.415									166637.000
8756	92973.500	78185.442									92973.500
8767	8.700	89184.366									8.700
8778	91139.602	105676.103									91139.602
8789	145912.500	125578.164									145912.500
8800	150769.094	143804.808									150769.094
8811	191185.406	155113.290									191185.406
8822	199709.203	156816.063									199709.203
8833	133450.094	149383.058									133450.094
8844	94.500	134852.602									94.500
8855	100078.898	114916.520									100078.898
8866	272617.406	90677.516									272617.406
8877	16.100	64172.881									16.100
8888	53960.500	39703.064									53960.500
8899	0.700	22948.705									0.700
8910	5.100	17912.527									5.100
8921	14.200	23897.884									14.200
8932	12.100	35058.591									12.100
8943	158714.000	43274.037									158714.000
8954	39057.602	42646.690									39057.602
8965	16.400	32684.715									16.400
8976	2.900	18163.405									2.900
8987	12.400	5979.631									12.400
8998	42.900	1193.878									42.900
9009	15.800	4625.075									
9020	65946.000	13052.643									
9031	1.500	21496.935									
9042	42.700	26223.458									
9053	3.300	27193.232									
9064	70888.500	29086.268									
9075	72920.500	40262.399									
9086	80144.703	69318.330									
9097	80006.898	119862.928									
9108	195602.094	185727.408									
9119	181648.203	249908.642									
9130	271960.094	289668.631									
9141	258515.000	286980.556									
9152	341034.813	239308.371									
9163	317737.313	163398.054									
9174	243973.094	87304.250									
9185	197140.094	33923.648									
9196	226795.703	8429.555									
9207	97171.602	994.250									
